graph (a) Measured time traces of current,,graph (a) time traces of ohmic voltage,,Computed time traces of mass density graph (b),,Computed time traces of pressure (graph c),,Computed time traces of temperature (graph d),,Computed time traces of conductivity (graph e),
Time (?sec ),I(kA). V(kV),Time (?sec ),I(kA). V(kV),Time (?sec ),log 10 ?(gm/cm3),Time (?sec ),P (kB),Time (?sec ),T (kK),Time (?sec ),log10 ?(S/m)
0.073363219,0.074329186,0.554695619,0.048376317,0.049384347,0.983757981,0.5891877,-0.264879111,0.030445351,0.095296463,1.106309933,4.007611498
0.212125713,3.674627225,0.624076866,0.092044051,0.118666615,0.983063422,0.658520291,-0.263276729,0.099792512,0.130149804,1.113238177,6.00877628
0.28150696,6.034049955,0.693458113,0.114473544,0.187955666,0.985586173,0.727854913,-0.237604762,0.169101805,0.075254709,1.103382741,3.037056815
0.350888207,8.445388387,0.76283936,0.162546247,0.257239631,0.985695941,0.797192243,-0.179840016,0.238432301,0.07060945,1.103078679,2.097492701
0.41810129,10.68005821,0.832220607,0.295414598,0.326540552,0.993848984,0.866523479,-0.194284024,0.307741594,0.015714355,1.114366835,4.975382531
0.472546296,12.48586777,0.908106346,1.348285825,0.39582282,0.993154425,0.935854716,-0.208728031,0.377081044,0.032290597,1.111311439,5.397547367
0.546022964,14.98280196,0.965442237,2.02453274,0.465105089,0.992459866,1.005185953,-0.223172039,0.446434103,0.081120544,1.10947163,4.347016794
0.663103818,18.56015227,1.036895285,3.896215044,0.534387357,0.991765307,1.114761129,1.653069807,0.515782171,0.118124132,1.108245091,3.646663078
0.732485064,20.52784742,1.10757743,5.854375323,0.603652079,0.982747783,1.133518793,24.86596515,0.585126276,0.145732578,1.106405283,2.596132505
0.801866311,22.43890726,1.180331377,7.487674139,0.672921888,0.97614324,1.13025842,18.42909722,0.654482175,0.201294234,1.16471713,6.176138116
0.871247558,24.08566898,1.253041522,9.816389164,0.74219907,0.973035699,1.127690998,13.67981723,0.723848655,0.281930644,1.225046848,5.955671589
0.940628805,25.60028163,1.308783046,11.9637459,0.811468879,0.966431157,1.125107326,8.737980571,0.793241487,0.425024546,1.285265632,5.671861855
1.010010052,26.7184471,1.394563497,15.42718091,0.880734279,0.957735363,1.172267492,33.14049229,0.862671113,0.655318146,1.345469293,5.379416806
1.079391299,27.27025944,1.46315632,18.45480002,0.950018582,0.958005997,1.145601929,42.15357941,0.93215133,1.005512393,1.405637493,5.066723437
1.148772546,27.39258733,1.546729186,19.60471707,1.019288626,0.951512986,1.146864095,38.64444422,1.001609752,1.30405196,1.465892638,4.80367588
1.218153792,26.97216014,1.619264126,19.62989423,1.088401325,0.870385681,1.166517212,47.8832328,1.071340356,2.247665625,1.521142423,4.60416544
1.287535039,25.85323077,1.670680586,17.53809849,1.15756659,0.814192528,1.199176599,24.44466492,1.130417836,3.618047233,1.575687829,4.350105043
1.354748122,24.00229209,1.716831504,15.28906996,1.22654058,0.667271238,1.252430597,19.05134671,1.189575362,5.178139269,1.633727317,4.060085956
1.413288549,21.66083709,1.766699275,12.57005462,1.295441316,0.485603002,1.242634605,15.00379108,1.250824739,6.560983978,1.694290283,3.97280405
1.470177042,17.43357762,1.821337007,9.887186867,1.364313564,0.290422064,1.29741433,22.2766507,1.2937512,8.165462902,1.754638396,3.762841135
1.441474681,20.3058099,1.889417356,7.495946464,1.433116288,0.062263701,1.345324639,25.17096416,1.331733393,9.865070955,1.815022491,3.573424312
1.527912151,15.26151243,1.956955663,6.080761134,1.502197786,-0.033663228,1.399244962,22.25991887,1.35971859,11.34948864,1.875470209,3.420335361
1.573732683,12.89573756,2.026878951,5.386556749,1.571065625,-0.230935417,1.453065064,18.16126243,1.435530956,12.98017893,1.935942957,3.281539342
1.606255142,10.68666662,2.105800119,4.867260223,1.640086416,-0.35565727,1.522100425,14.64068227,1.505397653,14.24632965,1.996510728,3.114456277
1.649618421,8.228899896,2.185588553,4.665057677,1.709139765,-0.464936035,1.591174377,11.57742422,1.575190859,15.33831036,2.056902847,3.012165741
1.701654356,5.799656571,2.263208823,4.614042054,1.778232793,-0.555393538,1.660295047,9.067766605,1.644808508,16.01421827,2.117501483,2.945251264
1.764531111,3.669030785,2.338612748,4.549764731,1.847351257,-0.633786129,1.729458372,7.063570271,1.714117229,15.95796708,2.178117432,2.888222733
1.833912358,2.167813054,2.408909442,4.477472524,1.916497191,-0.699148615,1.798666384,5.588904798,1.783268084,15.52757292,2.240111666,2.771026296
1.903293605,1.355658291,2.477315015,4.456710671,1.985661439,-0.755824365,1.867907571,4.507375873,1.852372667,14.98751616,2.303179445,2.822505513
1.972674852,0.982427198,2.555122535,4.345441902,2.054841966,-0.804778571,1.937169747,3.674565989,1.921489499,14.47648773,2.336744067,2.664962064
2.042056099,0.698868683,2.632663963,4.41319461,2.124041823,-0.844563445,2.006455621,3.122567926,1.990638993,14.0428682,2.385744812,2.579220661
2.111437346,0.594655324,2.709259282,4.327243431,2.19324982,-0.880487546,2.075745556,2.618709031,2.059803456,13.64472774,2.446356521,2.592604917
2.180818593,0.458977903,2.784290896,4.382747613,2.262470026,-0.91062049,2.145059189,2.395661957,2.128999221,13.3207708,2.508903663,2.517772169
2.250199839,0.318580872,2.858911872,4.315381454,2.331691249,-0.940270837,2.214366729,2.100406129,2.198222204,13.06132127,2.568141094,2.52579096
2.319581086,0.329211341,2.940398701,4.287364931,2.400895515,-0.977964459,2.283686455,1.949567809,2.267460158,12.83735082,2.630317087,2.481968016
2.388962333,0.317816967,,,2.470129626,-1.001501918,2.352998734,1.710474345,2.336702194,12.62305648,2.685936885,2.502470654
2.45834358,0.330020639,,,2.539386887,-1.014058484,2.4223232,1.615798389,2.405960561,12.44746658,2.749524987,2.532921946
2.527724827,0.323345873,,,2.610742151,-1.031462148,2.491647666,1.521122433,2.475216206,12.26542595,2.775027505,2.40191956
2.597106074,0.313524702,,,2.677845627,-1.06563034,2.560967393,1.370284112,2.544496347,12.14144198,2.823065577,2.488756963
2.66648732,0.317862358,,,2.747108993,-1.075291327,2.630288473,1.235492182,2.61376288,11.98520431,2.885699779,2.427439985
2.735868567,0.298601968,,,2.816374894,-1.08374947,2.69961971,1.221048174,2.683048465,11.87412182,2.944358776,2.409702698
2.805249814,0.33597689,,,2.885606218,-1.108608598,2.763238998,1.207794156,2.752336772,11.76949008,2.992080174,2.418900371
2.874631061,0.330875327,,,2.954859806,-1.122907233,2.814449571,1.197125286,2.821618275,11.64873148,1.113252772,6.278688509
2.944012308,0.325773765,,,,,2.890402771,1.147834954,2.890906582,11.54409973,,
,,,,,,2.966329706,0.882016842,2.953688874,11.42501716,,
,,,,,,1.160327702,49.75826726,,,,
,,,,,,1.172416097,43.00574884,,,,
,,,,,,1.176108015,36.75497969,,,,
,,,,,,1.141825917,30.5121218,,,,
,,,,,,1.179652256,28.75424131,,,,
,,,,,,1.216887889,19.99648389,,,,
